#### t[ps] ### RTCF <V(0)*V(t)> 
0.050000              1.168569E+00  
0.100000              1.154845E+00  
0.150000              1.147926E+00  
0.200000              1.140696E+00  
0.250000              1.135592E+00  
0.300000              1.131148E+00  
0.350000              1.127493E+00  
0.400000              1.124854E+00  
0.450000              1.122599E+00  
0.500000              1.121270E+00  
0.550000              1.119925E+00  
0.600000              1.118976E+00  
0.650000              1.117991E+00  
0.700000              1.117142E+00  
0.750000              1.116333E+00  
0.800000              1.115653E+00  
0.850000              1.114814E+00  
0.900000              1.113884E+00  
0.950000              1.113110E+00  
1.000000              1.112240E+00  
1.050000              1.111486E+00  
1.100000              1.110586E+00  
1.150000              1.109732E+00  
1.200000              1.108842E+00  
1.250000              1.107837E+00  
1.300000              1.107078E+00  
1.350000              1.106248E+00  
1.400000              1.105494E+00  
1.450000              1.104699E+00  
1.500000              1.104080E+00  
1.550000              1.103405E+00  
1.600000              1.102735E+00  
1.650000              1.102241E+00  
1.700000              1.101756E+00  
1.750000              1.101472E+00  
1.800000              1.100872E+00  
1.850000              1.100248E+00  
1.900000              1.099558E+00  
1.950000              1.098793E+00  
2.000000              1.098109E+00  
2.050000              1.097309E+00  
2.100000              1.096589E+00  
2.150000              1.095750E+00  
2.200000              1.095095E+00  
2.250000              1.094325E+00  
2.300000              1.093766E+00  
2.350000              1.093056E+00  
2.400000              1.092381E+00  
2.450000              1.091737E+00  
2.500000              1.091132E+00  
2.550000              1.090547E+00  
2.600000              1.090008E+00  
2.650000              1.089443E+00  
2.700000              1.088893E+00  
2.750000              1.088293E+00  
2.800000              1.087624E+00  
2.850000              1.086979E+00  
2.900000              1.086334E+00  
2.950000              1.085844E+00  
3.000000              1.085260E+00  
3.050000              1.084705E+00  
3.100000              1.084090E+00  
3.150000              1.083545E+00  
3.200000              1.082916E+00  
3.250000              1.082281E+00  
3.300000              1.081671E+00  
3.350000              1.081071E+00  
3.400000              1.080457E+00  
3.450000              1.079897E+00  
3.500000              1.079437E+00  
3.550000              1.078962E+00  
3.600000              1.078608E+00  
3.650000              1.078118E+00  
3.700000              1.077603E+00  
3.750000              1.077053E+00  
3.800000              1.076458E+00  
3.850000              1.075903E+00  
3.900000              1.075389E+00  
3.950000              1.074804E+00  
4.000000              1.074329E+00  
4.050000              1.073794E+00  
4.100000              1.073299E+00  
4.150000              1.072734E+00  
4.200000              1.072185E+00  
4.250000              1.071665E+00  
4.300000              1.071095E+00  
4.350000              1.070565E+00  
4.400000              1.070045E+00  
4.450000              1.069545E+00  
4.500000              1.068965E+00  
4.550000              1.068425E+00  
4.600000              1.067961E+00  
4.650000              1.067486E+00  
4.700000              1.066951E+00  
4.750000              1.066436E+00  
4.800000              1.065971E+00  
4.850000              1.065521E+00  
4.900000              1.065041E+00  
4.950000              1.064556E+00  
5.000000              1.063996E+00  
5.050000              1.063491E+00  
5.100000              1.062936E+00  
5.150000              1.062366E+00  
5.200000              1.061887E+00  
5.250000              1.061397E+00  
5.300000              1.060917E+00  
5.350000              1.060402E+00  
5.400000              1.059927E+00  
5.450000              1.059392E+00  
5.500000              1.058832E+00  
5.550000              1.058182E+00  
5.600000              1.057632E+00  
5.650000              1.057142E+00  
5.700000              1.056577E+00  
5.750000              1.056077E+00  
5.800000              1.055552E+00  
5.850000              1.055137E+00  
5.900000              1.054737E+00  
5.950000              1.054362E+00  
6.000000              1.053902E+00  
6.050000              1.053477E+00  
6.100000              1.052982E+00  
6.150000              1.052442E+00  
6.200000              1.051992E+00  
6.250000              1.051587E+00  
6.300000              1.051217E+00  
6.350000              1.050842E+00  
6.400000              1.050347E+00  
6.450000              1.049907E+00  
6.500000              1.049357E+00  
6.550000              1.048932E+00  
6.600000              1.048532E+00  
6.650000              1.048091E+00  
6.700000              1.047606E+00  
6.750000              1.047161E+00  
6.800000              1.046721E+00  
6.850000              1.046286E+00  
6.900000              1.045866E+00  
6.950000              1.045271E+00  
7.000000              1.044811E+00  
7.050000              1.044356E+00  
7.100000              1.043956E+00  
7.150000              1.043481E+00  
7.200000              1.043151E+00  
7.250000              1.042831E+00  
7.300000              1.042546E+00  
7.350000              1.042161E+00  
7.400000              1.041851E+00  
7.450000              1.041591E+00  
7.500000              1.041205E+00  
7.550000              1.040670E+00  
7.600000              1.040155E+00  
7.650000              1.039730E+00  
7.700000              1.039205E+00  
7.750000              1.038780E+00  
7.800000              1.038264E+00  
7.850000              1.037759E+00  
7.900000              1.037289E+00  
7.950000              1.036774E+00  
8.000000              1.036299E+00  
8.050000              1.035919E+00  
8.100000              1.035568E+00  
8.150000              1.035143E+00  
8.200000              1.034803E+00  
8.250000              1.034368E+00  
8.300000              1.033918E+00  
8.350000              1.033473E+00  
8.400000              1.032932E+00  
8.450000              1.032272E+00  
8.500000              1.031777E+00  
8.550000              1.031256E+00  
8.600000              1.030746E+00  
8.650000              1.030366E+00  
8.700000              1.029976E+00  
8.750000              1.029556E+00  
8.800000              1.029110E+00  
8.850000              1.028700E+00  
8.900000              1.028290E+00  
8.950000              1.027965E+00  
9.000000              1.027570E+00  
9.050000              1.027189E+00  
9.100000              1.026774E+00  
9.150000              1.026344E+00  
9.200000              1.025844E+00  
9.250000              1.025383E+00  
9.300000              1.024903E+00  
9.350000              1.024418E+00  
9.400000              1.023827E+00  
9.450000              1.023427E+00  
9.500000              1.022947E+00  
9.550000              1.022546E+00  
9.600000              1.022046E+00  
9.650000              1.021581E+00  
9.700000              1.021065E+00  
9.750000              1.020730E+00  
9.800000              1.020365E+00  
9.850000              1.019929E+00  
9.900000              1.019499E+00  
9.950000              1.019054E+00  
10.000000             1.018658E+00  
10.050000             1.018158E+00  
10.100000             1.017683E+00  
10.150000             1.017222E+00  
10.200000             1.016827E+00  
10.250000             1.016387E+00  
10.300000             1.015931E+00  
10.350000             1.015476E+00  
10.400000             1.014960E+00  
10.450000             1.014520E+00  
10.500000             1.014055E+00  
10.550000             1.013694E+00  
10.600000             1.013274E+00  
10.650000             1.012984E+00  
10.700000             1.012583E+00  
10.750000             1.012223E+00  
10.800000             1.011868E+00  
10.850000             1.011582E+00  
10.900000             1.011177E+00  
10.950000             1.010657E+00  
11.000000             1.010196E+00  
11.050000             1.009696E+00  
11.100000             1.009170E+00  
11.150000             1.008635E+00  
11.200000             1.008149E+00  
11.250000             1.007734E+00  
11.300000             1.007328E+00  
11.350000             1.006933E+00  
11.400000             1.006547E+00  
11.450000             1.006227E+00  
11.500000             1.005842E+00  
11.550000             1.005436E+00  
11.600000             1.005116E+00  
11.650000             1.004750E+00  
11.700000             1.004450E+00  
11.750000             1.004120E+00  
11.800000             1.003789E+00  
11.850000             1.003519E+00  
11.900000             1.003124E+00  
11.950000             1.002783E+00  
12.000000             1.002433E+00  
12.050000             1.002118E+00  
12.100000             1.001772E+00  
12.150000             1.001382E+00  
12.200000             1.001051E+00  
12.250000             1.000601E+00  
12.300000             1.000115E+00  
12.350000             9.996796E-01  
12.400000             9.992441E-01  
12.450000             9.988486E-01  
12.500000             9.984831E-01  
12.550000             9.981277E-01  
12.600000             9.978023E-01  
12.650000             9.973917E-01  
12.700000             9.970313E-01  
12.750000             9.966357E-01  
12.800000             9.962352E-01  
12.850000             9.958197E-01  
12.900000             9.954091E-01  
12.950000             9.949685E-01  
13.000000             9.945630E-01  
13.050000             9.941674E-01  
13.100000             9.938170E-01  
13.150000             9.936667E-01  
13.200000             9.933713E-01  
13.250000             9.930709E-01  
13.300000             9.928205E-01  
13.350000             9.924800E-01  
13.400000             9.922597E-01  
13.450000             9.919442E-01  
13.500000             9.916488E-01  
13.550000             9.913183E-01  
13.600000             9.910179E-01  
13.650000             9.906273E-01  
13.700000             9.902918E-01  
13.750000             9.899212E-01  
13.800000             9.895707E-01  
13.850000             9.891851E-01  
13.900000             9.887545E-01  
13.950000             9.882437E-01  
14.000000             9.876879E-01  
14.050000             9.873173E-01  
14.100000             9.869367E-01  
14.150000             9.866262E-01  
14.200000             9.863107E-01  
14.250000             9.860252E-01  
14.300000             9.857798E-01  
14.350000             9.855194E-01  
14.400000             9.851938E-01  
14.450000             9.848332E-01  
14.500000             9.844476E-01  
14.550000             9.841471E-01  
14.600000             9.838115E-01  
14.650000             9.834509E-01  
14.700000             9.831955E-01  
14.750000             9.828549E-01  
14.800000             9.824642E-01  
14.850000             9.821236E-01  
14.900000             9.817229E-01  
14.950000             9.814324E-01  
15.000000             9.811920E-01  
15.050000             9.809165E-01  
15.100000             9.806560E-01  
15.150000             9.804205E-01  
15.200000             9.801901E-01  
15.250000             9.799546E-01  
15.300000             9.795990E-01  
15.350000             9.792233E-01  
15.400000             9.787976E-01  
15.450000             9.783918E-01  
15.500000             9.780362E-01  
15.550000             9.778057E-01  
15.600000             9.775903E-01  
15.650000             9.772446E-01  
15.700000             9.769040E-01  
15.750000             9.765683E-01  
15.800000             9.762677E-01  
15.850000             9.759722E-01  
15.900000             9.755764E-01  
15.950000             9.752858E-01  
16.000000             9.748951E-01  
16.050000             9.746496E-01  
16.100000             9.743289E-01  
16.150000             9.741836E-01  
16.200000             9.738779E-01  
16.250000             9.736575E-01  
16.300000             9.734470E-01  
16.350000             9.732065E-01  
16.400000             9.729509E-01  
16.450000             9.726102E-01  
16.500000             9.723446E-01  
16.550000             9.720891E-01  
16.600000             9.716733E-01  
16.650000             9.712725E-01  
16.700000             9.709067E-01  
16.750000             9.705510E-01  
16.800000             9.701902E-01  
16.850000             9.698144E-01  
16.900000             9.694687E-01  
16.950000             9.691480E-01  
17.000000             9.688173E-01  
17.050000             9.684716E-01  
17.100000             9.681008E-01  
17.150000             9.678352E-01  
17.200000             9.675946E-01  
17.250000             9.673039E-01  
17.300000             9.669732E-01  
17.350000             9.667326E-01  
17.400000             9.664369E-01  
17.450000             9.661312E-01  
17.500000             9.658506E-01  
17.550000             9.655048E-01  
17.600000             9.651039E-01  
17.650000             9.646780E-01  
17.700000             9.643873E-01  
17.750000             9.640816E-01  
17.800000             9.637158E-01  
17.850000             9.635002E-01  
17.900000             9.631895E-01  
17.950000             9.629038E-01  
18.000000             9.626181E-01  
18.050000             9.622673E-01  
18.100000             9.620166E-01  
18.150000             9.616708E-01  
18.200000             9.613951E-01  
18.250000             9.610794E-01  
18.300000             9.607836E-01  
18.350000             9.604077E-01  
18.400000             9.600920E-01  
18.450000             9.598113E-01  
18.500000             9.595055E-01  
18.550000             9.592498E-01  
18.600000             9.589841E-01  
18.650000             9.587835E-01  
18.700000             9.585930E-01  
18.750000             9.583674E-01  
18.800000             9.580616E-01  
18.850000             9.577508E-01  
18.900000             9.574149E-01  
18.950000             9.571192E-01  
19.000000             9.568384E-01  
19.050000             9.565677E-01  
19.100000             9.563320E-01  
19.150000             9.560563E-01  
19.200000             9.558356E-01  
19.250000             9.555298E-01  
19.300000             9.552290E-01  
19.350000             9.549533E-01  
19.400000             9.546575E-01  
19.450000             9.543617E-01  
19.500000             9.539958E-01  
19.550000             9.536549E-01  
19.600000             9.532589E-01  
19.650000             9.529029E-01  
19.700000             9.526472E-01  
19.750000             9.523263E-01  
19.800000             9.519854E-01  
19.850000             9.516245E-01  
19.900000             9.512485E-01  
19.950000             9.509226E-01  
20.000000             9.506067E-01  
20.050000             9.502708E-01  
20.100000             9.499699E-01  
20.150000             9.496891E-01  
20.200000             9.493833E-01  
20.250000             9.490624E-01  
20.300000             9.487014E-01  
20.350000             9.483304E-01  
20.400000             9.479944E-01  
20.450000             9.477086E-01  
20.500000             9.473726E-01  
20.550000             9.471018E-01  
20.600000             9.468561E-01  
20.650000             9.465852E-01  
20.700000             9.462693E-01  
20.750000             9.459935E-01  
20.800000             9.457427E-01  
20.850000             9.454719E-01  
20.900000             9.451459E-01  
20.950000             9.449953E-01  
21.000000             9.447245E-01  
21.050000             9.445138E-01  
21.100000             9.442479E-01  
21.150000             9.439220E-01  
21.200000             9.436611E-01  
21.250000             9.433352E-01  
21.300000             9.430693E-01  
21.350000             9.426982E-01  
21.400000             9.424574E-01  
21.450000             9.421515E-01  
21.500000             9.418556E-01  
21.550000             9.414795E-01  
21.600000             9.410984E-01  
21.650000             9.406922E-01  
21.700000             9.403261E-01  
21.750000             9.400001E-01  
21.800000             9.396540E-01  
21.850000             9.393230E-01  
21.900000             9.391123E-01  
21.950000             9.389416E-01  
22.000000             9.387759E-01  
22.050000             9.385351E-01  
22.100000             9.382241E-01  
22.150000             9.379482E-01  
22.200000             9.376773E-01  
22.250000             9.374364E-01  
22.300000             9.371856E-01  
22.350000             9.369196E-01  
22.400000             9.367089E-01  
22.450000             9.364279E-01  
22.500000             9.361369E-01  
22.550000             9.358309E-01  
22.600000             9.355400E-01  
22.650000             9.353242E-01  
22.700000             9.350332E-01  
22.750000             9.347873E-01  
22.800000             9.344712E-01  
22.850000             9.342254E-01  
22.900000             9.339594E-01  
22.950000             9.336484E-01  
23.000000             9.334125E-01  
23.050000             9.331215E-01  
23.100000             9.328856E-01  
23.150000             9.325846E-01  
23.200000             9.323437E-01  
23.250000             9.320778E-01  
23.300000             9.318770E-01  
23.350000             9.317062E-01  
23.400000             9.315555E-01  
23.450000             9.312996E-01  
23.500000             9.310938E-01  
23.550000             9.307927E-01  
23.600000             9.305368E-01  
23.650000             9.303510E-01  
23.700000             9.301301E-01  
23.750000             9.299794E-01  
23.800000             9.298187E-01  
23.850000             9.295928E-01  
23.900000             9.293118E-01  
23.950000             9.290157E-01  
24.000000             9.288149E-01  
24.050000             9.285138E-01  
24.100000             9.282127E-01  
24.150000             9.279918E-01  
24.200000             9.277509E-01  
24.250000             9.275450E-01  
24.300000             9.273191E-01  
24.350000             9.271032E-01  
24.400000             9.268172E-01  
24.450000             9.265562E-01  
24.500000             9.262501E-01  
24.550000             9.259941E-01  
24.600000             9.257782E-01  
24.650000             9.255322E-01  
24.700000             9.252912E-01  
24.750000             9.250553E-01  
24.800000             9.248043E-01  
24.850000             9.245733E-01  
24.900000             9.243123E-01  
24.950000             9.240162E-01  
25.000000             9.236499E-01  
25.050000             9.233237E-01  
25.100000             9.230326E-01  
25.150000             9.227665E-01  
25.200000             9.224253E-01  
25.250000             9.221592E-01  
25.300000             9.219182E-01  
25.350000             9.216622E-01  
25.400000             9.213711E-01  
25.450000             9.212103E-01  
25.500000             9.210595E-01  
25.550000             9.208285E-01  
25.600000             9.206577E-01  
25.650000             9.204217E-01  
25.700000             9.202057E-01  
25.750000             9.199096E-01  
25.800000             9.195482E-01  
25.850000             9.191869E-01  
25.900000             9.188907E-01  
25.950000             9.185194E-01  
26.000000             9.182382E-01  
26.050000             9.180273E-01  
26.100000             9.177411E-01  
26.150000             9.175051E-01  
26.200000             9.173142E-01  
26.250000             9.170832E-01  
26.300000             9.167719E-01  
26.350000             9.164607E-01  
26.400000             9.162096E-01  
26.450000             9.159936E-01  
26.500000             9.157175E-01  
26.550000             9.154965E-01  
26.600000             9.152805E-01  
26.650000             9.150545E-01  
26.700000             9.147583E-01  
26.750000             9.144921E-01  
26.800000             9.142360E-01  
26.850000             9.139799E-01  
26.900000             9.137739E-01  
26.950000             9.135830E-01  
