#### t[ps] ### MACF <V(0)*V(t)> 
0.020000              1.530890E-01  
0.060000              1.495900E-01  
0.100000              1.481474E-01  
0.140000              1.468647E-01  
0.180000              1.456618E-01  
0.220000              1.445389E-01  
0.260000              1.434025E-01  
0.300000              1.423027E-01  
0.340000              1.412161E-01  
0.380000              1.401994E-01  
0.420000              1.391760E-01  
0.460000              1.381491E-01  
0.500000              1.371855E-01  
0.540000              1.362184E-01  
0.580000              1.353046E-01  
0.620000              1.344241E-01  
0.660000              1.334901E-01  
0.700000              1.325594E-01  
0.740000              1.316586E-01  
0.780000              1.307677E-01  
0.820000              1.298767E-01  
0.860000              1.290090E-01  
0.900000              1.281846E-01  
0.940000              1.273401E-01  
0.980000              1.265389E-01  
1.020000              1.257476E-01  
1.060000              1.249128E-01  
1.100000              1.241047E-01  
1.140000              1.233031E-01  
1.180000              1.224848E-01  
1.220000              1.216998E-01  
1.260000              1.209047E-01  
1.300000              1.201229E-01  
1.340000              1.193409E-01  
1.380000              1.185923E-01  
1.420000              1.178370E-01  
1.460000              1.170782E-01  
1.500000              1.163361E-01  
1.540000              1.156172E-01  
1.580000              1.148983E-01  
1.620000              1.141860E-01  
1.660000              1.134903E-01  
1.700000              1.127946E-01  
1.740000              1.121054E-01  
1.780000              1.114262E-01  
1.820000              1.107269E-01  
1.860000              1.100677E-01  
1.900000              1.094250E-01  
1.940000              1.087990E-01  
1.980000              1.081462E-01  
2.020000              1.075301E-01  
2.060000              1.068605E-01  
2.100000              1.062376E-01  
2.140000              1.056380E-01  
2.180000              1.049749E-01  
2.220000              1.043718E-01  
2.260000              1.037018E-01  
2.300000              1.030786E-01  
2.340000              1.024420E-01  
2.380000              1.018186E-01  
2.420000              1.012286E-01  
2.460000              1.006520E-01  
2.500000              1.000552E-01  
2.540000              9.950179E-02  
2.580000              9.896507E-02  
2.620000              9.841493E-02  
2.660000              9.786138E-02  
2.700000              9.734791E-02  
2.740000              9.683105E-02  
2.780000              9.630745E-02  
2.820000              9.577710E-02  
2.860000              9.526677E-02  
2.900000              9.473966E-02  
2.940000              9.419577E-02  
2.980000              9.369867E-02  
3.020000              9.321824E-02  
3.060000              9.270765E-02  
3.100000              9.222713E-02  
3.140000              9.172313E-02  
3.180000              9.120570E-02  
3.220000              9.073172E-02  
3.260000              9.023092E-02  
3.300000              8.976020E-02  
3.340000              8.932289E-02  
3.380000              8.885207E-02  
3.420000              8.840463E-02  
3.460000              8.795046E-02  
3.500000              8.748954E-02  
3.540000              8.702523E-02  
3.580000              8.657426E-02  
3.620000              8.616678E-02  
3.660000              8.574920E-02  
3.700000              8.532155E-02  
3.740000              8.487375E-02  
3.780000              8.443596E-02  
3.820000              8.401487E-02  
3.860000              8.362723E-02  
3.900000              8.322280E-02  
3.940000              8.281164E-02  
3.980000              8.240713E-02  
4.020000              8.199588E-02  
4.060000              8.160134E-02  
4.100000              8.121346E-02  
4.140000              8.082219E-02  
4.180000              8.044094E-02  
4.220000              8.006634E-02  
4.260000              7.966156E-02  
4.300000              7.929694E-02  
4.340000              7.888872E-02  
4.380000              7.848381E-02  
4.420000              7.808221E-02  
4.460000              7.769398E-02  
4.500000              7.730907E-02  
4.540000              7.694757E-02  
4.580000              7.658940E-02  
4.620000              7.622113E-02  
4.660000              7.585953E-02  
4.700000              7.551800E-02  
4.740000              7.516974E-02  
4.780000              7.482145E-02  
4.820000              7.447647E-02  
4.860000              7.412140E-02  
4.900000              7.378305E-02  
4.940000              7.344468E-02  
4.980000              7.308950E-02  
5.020000              7.275106E-02  
5.060000              7.241593E-02  
5.100000              7.209419E-02  
5.140000              7.177578E-02  
5.180000              7.147410E-02  
5.220000              7.118582E-02  
5.260000              7.088408E-02  
5.300000              7.056218E-02  
5.340000              7.024696E-02  
5.380000              6.994178E-02  
5.420000              6.964663E-02  
5.460000              6.934474E-02  
5.500000              6.902604E-02  
5.540000              6.872745E-02  
5.580000              6.845232E-02  
5.620000              6.817381E-02  
5.660000              6.790534E-02  
5.700000              6.763348E-02  
5.740000              6.734817E-02  
5.780000              6.706955E-02  
5.820000              6.679425E-02  
5.860000              6.651893E-02  
5.900000              6.625029E-02  
5.940000              6.597156E-02  
5.980000              6.569615E-02  
6.020000              6.543079E-02  
6.060000              6.520571E-02  
6.100000              6.496717E-02  
6.140000              6.471853E-02  
6.180000              6.445642E-02  
6.220000              6.421445E-02  
6.260000              6.396573E-02  
6.300000              6.370355E-02  
6.340000              6.345479E-02  
6.380000              6.322615E-02  
6.420000              6.298070E-02  
6.460000              6.271841E-02  
6.500000              6.245610E-02  
6.540000              6.218369E-02  
6.580000              6.193813E-02  
6.620000              6.168246E-02  
6.660000              6.141669E-02  
6.700000              6.119122E-02  
6.740000              6.098254E-02  
6.780000              6.076375E-02  
6.820000              6.053149E-02  
6.860000              6.029921E-02  
6.900000              6.008708E-02  
6.940000              5.987492E-02  
6.980000              5.965602E-02  
7.020000              5.943374E-02  
7.060000              5.920471E-02  
7.100000              5.896893E-02  
7.140000              5.872976E-02  
7.180000              5.851075E-02  
7.220000              5.829844E-02  
7.260000              5.807602E-02  
7.300000              5.783676E-02  
7.340000              5.760420E-02  
7.380000              5.735480E-02  
7.420000              5.713228E-02  
7.460000              5.690975E-02  
7.500000              5.668046E-02  
7.540000              5.648480E-02  
7.580000              5.629248E-02  
7.620000              5.610015E-02  
7.660000              5.588423E-02  
7.700000              5.566493E-02  
7.740000              5.545234E-02  
7.780000              5.521954E-02  
7.820000              5.502710E-02  
7.860000              5.481444E-02  
7.900000              5.461523E-02  
7.940000              5.440926E-02  
7.980000              5.421001E-02  
8.020000              5.401074E-02  
8.060000              5.379461E-02  
8.100000              5.359193E-02  
8.140000              5.339597E-02  
8.180000              5.318314E-02  
8.220000              5.298714E-02  
8.260000              5.278101E-02  
8.300000              5.257822E-02  
8.340000              5.238889E-02  
8.380000              5.217596E-02  
8.420000              5.197986E-02  
8.460000              5.178036E-02  
8.500000              5.158421E-02  
8.540000              5.138805E-02  
8.580000              5.118849E-02  
8.620000              5.101587E-02  
8.660000              5.081964E-02  
8.700000              5.061666E-02  
8.740000              5.043050E-02  
8.780000              5.024433E-02  
8.820000              5.005477E-02  
8.860000              4.988541E-02  
8.900000              4.969243E-02  
8.940000              4.950619E-02  
8.980000              4.932666E-02  
9.020000              4.915723E-02  
9.060000              4.899452E-02  
9.100000              4.881157E-02  
9.140000              4.863872E-02  
9.180000              4.846247E-02  
9.220000              4.831319E-02  
9.260000              4.814365E-02  
9.300000              4.798085E-02  
9.340000              4.784500E-02  
9.380000              4.771252E-02  
9.420000              4.758002E-02  
9.460000              4.743739E-02  
9.500000              4.730149E-02  
9.540000              4.715209E-02  
9.580000              4.699929E-02  
9.620000              4.682287E-02  
9.660000              4.668016E-02  
9.700000              4.650708E-02  
9.740000              4.634410E-02  
9.780000              4.619460E-02  
9.820000              4.602146E-02  
9.860000              4.587193E-02  
9.900000              4.571564E-02  
9.940000              4.555257E-02  
9.980000              4.536249E-02  
10.020000             4.519940E-02  
10.060000             4.502954E-02  
10.100000             4.485966E-02  
10.140000             4.471339E-02  
10.180000             4.457048E-02  
10.220000             4.444782E-02  
10.260000             4.433865E-02  
10.300000             4.419571E-02  
10.340000             4.407638E-02  
10.380000             4.394354E-02  
10.420000             4.382419E-02  
10.460000             4.368457E-02  
10.500000             4.355168E-02  
10.540000             4.342216E-02  
10.580000             4.330276E-02  
10.620000             4.316984E-02  
10.660000             4.304704E-02  
10.700000             4.291409E-02  
10.740000             4.276424E-02  
10.780000             4.263464E-02  
10.820000             4.249151E-02  
10.860000             4.234161E-02  
10.900000             4.219508E-02  
10.940000             4.204853E-02  
10.980000             4.189520E-02  
11.020000             4.175876E-02  
11.060000             4.161555E-02  
11.100000             4.147570E-02  
11.140000             4.133583E-02  
11.180000             4.118244E-02  
11.220000             4.104592E-02  
11.260000             4.090602E-02  
11.300000             4.077286E-02  
11.340000             4.062954E-02  
11.380000             4.049974E-02  
11.420000             4.037330E-02  
11.460000             4.022656E-02  
11.500000             4.010010E-02  
11.540000             3.995333E-02  
11.580000             3.979978E-02  
11.620000             3.964960E-02  
11.660000             3.950617E-02  
11.700000             3.933567E-02  
11.740000             3.918882E-02  
11.780000             3.902843E-02  
11.820000             3.886803E-02  
11.860000             3.872452E-02  
11.900000             3.856408E-02  
11.940000             3.841378E-02  
11.980000             3.826008E-02  
12.020000             3.811651E-02  
12.060000             3.795939E-02  
12.100000             3.782256E-02  
12.140000             3.767895E-02  
12.180000             3.752856E-02  
12.220000             3.736122E-02  
12.260000             3.719726E-02  
12.300000             3.704682E-02  
12.340000             3.690313E-02  
12.380000             3.674927E-02  
12.420000             3.660217E-02  
12.460000             3.646860E-02  
12.500000             3.633162E-02  
12.540000             3.619802E-02  
12.580000             3.603054E-02  
12.620000             3.590030E-02  
12.660000             3.577343E-02  
12.700000             3.561268E-02  
12.740000             3.547901E-02  
12.780000             3.536226E-02  
12.820000             3.524211E-02  
12.860000             3.512195E-02  
12.900000             3.499162E-02  
12.940000             3.487821E-02  
12.980000             3.478511E-02  
13.020000             3.467846E-02  
13.060000             3.458535E-02  
13.100000             3.448206E-02  
13.140000             3.439231E-02  
13.180000             3.431951E-02  
13.220000             3.422636E-02  
13.260000             3.414337E-02  
13.300000             3.405698E-02  
13.340000             3.395363E-02  
13.380000             3.385366E-02  
13.420000             3.376386E-02  
13.460000             3.366048E-02  
13.500000             3.357404E-02  
13.540000             3.349099E-02  
13.580000             3.339097E-02  
13.620000             3.329773E-02  
13.660000             3.322143E-02  
13.700000             3.313495E-02  
13.740000             3.303151E-02  
13.780000             3.293144E-02  
13.820000             3.283815E-02  
13.860000             3.275502E-02  
13.900000             3.267189E-02  
13.940000             3.258196E-02  
13.980000             3.249542E-02  
14.020000             3.241226E-02  
14.060000             3.232570E-02  
14.100000             3.223234E-02  
14.140000             3.213219E-02  
14.180000             3.205578E-02  
14.220000             3.196240E-02  
14.260000             3.186901E-02  
14.300000             3.178918E-02  
14.340000             3.169916E-02  
14.380000             3.161932E-02  
14.420000             3.154626E-02  
14.460000             3.147318E-02  
14.500000             3.140350E-02  
14.540000             3.133720E-02  
14.580000             3.126751E-02  
14.620000             3.120799E-02  
14.660000             3.113488E-02  
14.700000             3.106516E-02  
14.740000             3.099883E-02  
14.780000             3.092570E-02  
14.820000             3.084238E-02  
14.860000             3.077602E-02  
14.900000             3.071985E-02  
14.940000             3.065009E-02  
14.980000             3.060750E-02  
15.020000             3.053093E-02  
15.060000             3.046454E-02  
15.100000             3.042873E-02  
15.140000             3.037252E-02  
15.180000             3.031291E-02  
15.220000             3.026010E-02  
15.260000             3.019368E-02  
15.300000             3.012046E-02  
15.340000             3.004384E-02  
15.380000             2.997740E-02  
15.420000             2.991436E-02  
15.460000             2.985130E-02  
15.500000             2.977805E-02  
15.540000             2.969459E-02  
15.580000             2.961792E-02  
15.620000             2.954804E-02  
15.660000             2.948156E-02  
15.700000             2.940826E-02  
15.740000             2.932477E-02  
15.780000             2.924806E-02  
15.820000             2.916114E-02  
15.860000             2.909122E-02  
15.900000             2.901449E-02  
15.940000             2.893435E-02  
15.980000             2.885420E-02  
16.020000             2.876724E-02  
16.060000             2.866667E-02  
16.100000             2.856608E-02  
16.140000             2.846549E-02  
16.180000             2.835128E-02  
16.220000             2.825407E-02  
16.260000             2.815344E-02  
16.300000             2.805621E-02  
16.340000             2.796917E-02  
16.380000             2.787873E-02  
16.420000             2.777806E-02  
16.460000             2.767398E-02  
16.500000             2.758691E-02  
16.540000             2.748622E-02  
16.580000             2.739913E-02  
16.620000             2.732904E-02  
16.660000             2.725215E-02  
16.700000             2.716503E-02  
16.740000             2.706089E-02  
16.780000             2.698396E-02  
16.820000             2.690704E-02  
16.860000             2.684031E-02  
16.900000             2.677699E-02  
16.940000             2.670004E-02  
16.980000             2.662989E-02  
17.020000             2.654952E-02  
17.060000             2.646914E-02  
17.100000             2.640918E-02  
17.140000             2.634582E-02  
17.180000             2.628585E-02  
17.220000             2.620203E-02  
17.260000             2.613183E-02  
17.300000             2.606503E-02  
17.340000             2.600164E-02  
17.380000             2.591438E-02  
17.420000             2.583393E-02  
17.460000             2.576029E-02  
17.500000             2.567641E-02  
17.540000             2.563342E-02  
17.580000             2.555976E-02  
17.620000             2.547245E-02  
17.660000             2.539196E-02  
17.700000             2.531145E-02  
17.740000             2.524116E-02  
17.780000             2.518109E-02  
17.820000             2.512102E-02  
17.860000             2.506435E-02  
17.900000             2.500426E-02  
17.940000             2.494417E-02  
17.980000             2.487384E-02  
18.020000             2.481033E-02  
18.060000             2.474680E-02  
18.100000             2.469351E-02  
18.140000             2.464361E-02  
18.180000             2.458348E-02  
18.220000             2.452335E-02  
18.260000             2.447003E-02  
18.300000             2.440647E-02  
18.340000             2.435314E-02  
18.380000             2.428274E-02  
18.420000             2.422257E-02  
18.460000             2.416240E-02  
18.500000             2.409881E-02  
18.540000             2.403180E-02  
18.580000             2.396478E-02  
18.620000             2.388752E-02  
18.660000             2.381708E-02  
18.700000             2.375346E-02  
18.740000             2.367958E-02  
18.780000             2.362960E-02  
18.820000             2.358302E-02  
18.860000             2.351596E-02  
18.900000             2.346596E-02  
18.940000             2.339888E-02  
18.980000             2.333180E-02  
19.020000             2.325446E-02  
19.060000             2.319420E-02  
19.100000             2.313734E-02  
19.140000             2.306681E-02  
19.180000             2.299628E-02  
19.220000             2.293598E-02  
19.260000             2.286885E-02  
19.300000             2.279830E-02  
19.340000             2.274482E-02  
19.380000             2.269474E-02  
19.420000             2.264467E-02  
19.460000             2.260483E-02  
19.500000             2.255816E-02  
19.540000             2.252174E-02  
19.580000             2.248872E-02  
19.620000             2.245571E-02  
19.660000             2.242269E-02  
19.700000             2.239308E-02  
19.740000             2.236689E-02  
19.780000             2.232361E-02  
19.820000             2.229741E-02  
19.860000             2.226096E-02  
19.900000             2.222792E-02  
19.940000             2.219488E-02  
19.980000             2.215499E-02  
20.020000             2.213562E-02  
20.060000             2.210256E-02  
20.100000             2.208660E-02  
20.140000             2.206380E-02  
20.180000             2.203758E-02  
20.220000             2.200109E-02  
20.260000             2.197829E-02  
20.300000             2.197257E-02  
20.340000             2.194976E-02  
20.380000             2.193036E-02  
20.420000             2.192465E-02  
20.460000             2.192235E-02  
20.500000             2.190637E-02  
20.540000             2.189039E-02  
20.580000             2.186757E-02  
20.620000             2.185159E-02  
20.660000             2.181507E-02  
20.700000             2.179224E-02  
20.740000             2.176256E-02  
20.780000             2.171577E-02  
20.820000             2.168609E-02  
20.860000             2.165298E-02  
20.900000             2.163355E-02  
20.940000             2.160728E-02  
20.980000             2.156732E-02  
21.020000             2.153420E-02  
21.060000             2.150792E-02  
21.100000             2.148163E-02  
21.140000             2.147247E-02  
21.180000             2.144276E-02  
21.220000             2.142331E-02  
21.260000             2.141757E-02  
21.300000             2.139470E-02  
21.340000             2.137182E-02  
21.380000             2.134552E-02  
21.420000             2.133292E-02  
21.460000             2.132717E-02  
21.500000             2.131114E-02  
21.540000             2.129853E-02  
