#### t[ps] ### MACF <Q(0)*Q(t)> 
0.050000              1.000000E+00  
0.150000              9.908788E-01  
0.250000              9.858747E-01  
0.350000              9.817768E-01  
0.450000              9.783780E-01  
0.550000              9.754452E-01  
0.650000              9.728231E-01  
0.750000              9.705116E-01  
0.850000              9.682778E-01  
0.950000              9.659143E-01  
1.050000              9.636803E-01  
1.150000              9.613685E-01  
1.250000              9.591343E-01  
1.350000              9.570554E-01  
1.450000              9.548987E-01  
1.550000              9.527679E-01  
1.650000              9.505851E-01  
1.750000              9.484282E-01  
1.850000              9.463748E-01  
1.950000              9.442695E-01  
2.050000              9.422937E-01  
2.150000              9.402659E-01  
2.250000              9.382122E-01  
2.350000              9.362102E-01  
2.450000              9.342341E-01  
2.550000              9.323355E-01  
2.650000              9.303592E-01  
2.750000              9.284087E-01  
2.850000              9.264063E-01  
2.950000              9.243780E-01  
3.050000              9.224272E-01  
3.150000              9.205023E-01  
3.250000              9.185515E-01  
3.350000              9.166005E-01  
3.450000              9.147013E-01  
3.550000              9.127761E-01  
3.650000              9.109026E-01  
3.750000              9.090032E-01  
3.850000              9.070518E-01  
3.950000              9.051522E-01  
4.050000              9.031748E-01  
4.150000              9.011973E-01  
4.250000              8.992457E-01  
4.350000              8.974235E-01  
4.450000              8.956531E-01  
4.550000              8.937790E-01  
4.650000              8.920085E-01  
4.750000              8.902119E-01  
4.850000              8.884153E-01  
4.950000              8.866446E-01  
5.050000              8.849775E-01  
5.150000              8.832584E-01  
5.250000              8.814875E-01  
5.350000              8.796646E-01  
5.450000              8.779453E-01  
5.550000              8.761482E-01  
5.650000              8.744029E-01  
5.750000              8.727872E-01  
5.850000              8.710936E-01  
5.950000              8.694258E-01  
6.050000              8.677580E-01  
6.150000              8.661939E-01  
6.250000              8.646296E-01  
6.350000              8.630394E-01  
6.450000              8.613454E-01  
6.550000              8.596513E-01  
6.650000              8.579313E-01  
6.750000              8.562371E-01  
6.850000              8.545687E-01  
6.950000              8.529003E-01  
7.050000              8.511800E-01  
7.150000              8.495374E-01  
7.250000              8.479206E-01  
7.350000              8.463297E-01  
7.450000              8.447647E-01  
7.550000              8.431219E-01  
7.650000              8.415049E-01  
7.750000              8.398878E-01  
7.850000              8.381929E-01  
7.950000              8.365238E-01  
8.050000              8.349325E-01  
8.150000              8.333670E-01  
8.250000              8.318015E-01  
8.350000              8.302100E-01  
8.450000              8.286184E-01  
8.550000              8.270786E-01  
8.650000              8.255129E-01  
8.750000              8.238952E-01  
8.850000              8.223033E-01  
8.950000              8.206336E-01  
9.050000              8.189638E-01  
9.150000              8.173458E-01  
9.250000              8.157019E-01  
9.350000              8.140319E-01  
9.450000              8.123878E-01  
9.550000              8.107955E-01  
9.650000              8.092031E-01  
9.750000              8.076885E-01  
9.850000              8.060961E-01  
9.950000              8.044776E-01  
10.050000             8.030147E-01  
10.150000             8.015518E-01  
10.250000             8.000628E-01  
10.350000             7.985738E-01  
10.450000             7.970848E-01  
10.550000             7.955697E-01  
10.650000             7.939767E-01  
10.750000             7.924356E-01  
10.850000             7.909204E-01  
10.950000             7.894310E-01  
11.050000             7.879416E-01  
11.150000             7.864521E-01  
11.250000             7.849885E-01  
11.350000             7.834989E-01  
11.450000             7.820352E-01  
11.550000             7.805974E-01  
11.650000             7.791076E-01  
11.750000             7.776438E-01  
11.850000             7.761279E-01  
11.950000             7.745861E-01  
12.050000             7.731480E-01  
12.150000             7.716060E-01  
12.250000             7.700899E-01  
12.350000             7.686256E-01  
12.450000             7.671613E-01  
12.550000             7.656710E-01  
12.650000             7.642066E-01  
12.750000             7.626902E-01  
12.850000             7.612517E-01  
12.950000             7.597352E-01  
13.050000             7.582186E-01  
13.150000             7.566500E-01  
13.250000             7.551593E-01  
13.350000             7.535906E-01  
13.450000             7.520478E-01  
13.550000             7.505309E-01  
13.650000             7.490140E-01  
13.750000             7.475230E-01  
13.850000             7.460319E-01  
13.950000             7.445667E-01  
14.050000             7.430755E-01  
14.150000             7.416102E-01  
14.250000             7.401188E-01  
14.350000             7.386794E-01  
14.450000             7.372658E-01  
14.550000             7.357743E-01  
14.650000             7.343347E-01  
14.750000             7.328690E-01  
14.850000             7.314293E-01  
14.950000             7.299635E-01  
15.050000             7.284977E-01  
15.150000             7.270318E-01  
15.250000             7.256178E-01  
15.350000             7.241778E-01  
15.450000             7.228416E-01  
15.550000             7.214274E-01  
15.650000             7.200132E-01  
15.750000             7.185729E-01  
15.850000             7.171586E-01  
15.950000             7.156662E-01  
16.050000             7.141739E-01  
16.150000             7.126294E-01  
16.250000             7.112668E-01  
16.350000             7.099561E-01  
16.450000             7.085674E-01  
16.550000             7.071007E-01  
16.650000             7.056599E-01  
16.750000             7.043230E-01  
16.850000             7.028821E-01  
16.950000             7.014672E-01  
17.050000             7.000521E-01  
17.150000             6.986890E-01  
17.250000             6.972739E-01  
17.350000             6.958327E-01  
17.450000             6.944175E-01  
17.550000             6.929502E-01  
17.650000             6.915608E-01  
17.750000             6.901973E-01  
17.850000             6.888079E-01  
17.950000             6.874703E-01  
18.050000             6.861587E-01  
18.150000             6.848730E-01  
18.250000             6.835092E-01  
18.350000             6.821974E-01  
18.450000             6.809376E-01  
18.550000             6.796257E-01  
18.650000             6.783657E-01  
18.750000             6.770797E-01  
18.850000             6.758716E-01  
18.950000             6.746895E-01  
19.050000             6.735333E-01  
19.150000             6.724291E-01  
19.250000             6.712728E-01  
19.350000             6.699605E-01  
19.450000             6.686741E-01  
19.550000             6.673097E-01  
19.650000             6.660232E-01  
19.750000             6.647367E-01  
19.850000             6.634242E-01  
19.950000             6.621375E-01  
20.050000             6.609289E-01  
20.150000             6.596422E-01  
20.250000             6.583814E-01  
20.350000             6.570946E-01  
20.450000             6.558337E-01  
20.550000             6.545988E-01  
20.650000             6.533118E-01  
20.750000             6.520508E-01  
20.850000             6.508157E-01  
20.950000             6.496326E-01  
21.050000             6.483974E-01  
21.150000             6.471882E-01  
21.250000             6.459269E-01  
21.350000             6.446656E-01  
21.450000             6.434042E-01  
21.550000             6.421688E-01  
21.650000             6.409073E-01  
21.750000             6.396458E-01  
21.850000             6.382802E-01  
21.950000             6.370185E-01  
22.050000             6.357829E-01  
22.150000             6.345992E-01  
22.250000             6.333894E-01  
22.350000             6.322576E-01  
22.450000             6.310478E-01  
22.550000             6.298639E-01  
22.650000             6.286019E-01  
22.750000             6.273919E-01  
22.850000             6.262079E-01  
22.950000             6.249978E-01  
23.050000             6.237096E-01  
23.150000             6.225254E-01  
23.250000             6.212891E-01  
23.350000             6.200528E-01  
23.450000             6.188685E-01  
23.550000             6.177101E-01  
23.650000             6.165517E-01  
23.750000             6.154193E-01  
23.850000             6.141827E-01  
23.950000             6.129982E-01  
24.050000             6.118396E-01  
24.150000             6.107330E-01  
24.250000             6.096263E-01  
24.350000             6.084936E-01  
24.450000             6.074390E-01  
24.550000             6.064103E-01  
24.650000             6.053034E-01  
24.750000             6.042226E-01  
24.850000             6.031417E-01  
24.950000             6.020087E-01  
25.050000             6.009017E-01  
25.150000             5.997687E-01  
25.250000             5.986356E-01  
25.350000             5.975545E-01  
25.450000             5.964733E-01  
25.550000             5.954182E-01  
25.650000             5.943890E-01  
25.750000             5.933337E-01  
25.850000             5.922264E-01  
25.950000             5.911971E-01  
26.050000             5.900636E-01  
26.150000             5.889822E-01  
26.250000             5.878747E-01  
26.350000             5.867931E-01  
26.450000             5.857376E-01  
26.550000             5.847080E-01  
26.650000             5.836784E-01  
26.750000             5.826228E-01  
26.850000             5.815931E-01  
26.950000             5.805634E-01  
27.050000             5.795336E-01  
27.150000             5.785298E-01  
27.250000             5.774739E-01  
27.350000             5.763920E-01  
27.450000             5.753881E-01  
27.550000             5.743321E-01  
27.650000             5.733281E-01  
27.750000             5.723501E-01  
27.850000             5.713721E-01  
27.950000             5.703941E-01  
28.050000             5.693379E-01  
28.150000             5.682816E-01  
28.250000             5.671993E-01  
28.350000             5.661950E-01  
28.450000             5.652167E-01  
28.550000             5.642124E-01  
28.650000             5.632601E-01  
28.750000             5.623078E-01  
28.850000             5.613554E-01  
28.950000             5.604030E-01  
29.050000             5.595027E-01  
29.150000             5.585502E-01  
29.250000             5.576237E-01  
29.350000             5.567232E-01  
29.450000             5.557446E-01  
29.550000             5.548180E-01  
29.650000             5.538653E-01  
29.750000             5.528866E-01  
29.850000             5.518557E-01  
29.950000             5.509029E-01  
30.050000             5.499761E-01  
30.150000             5.490233E-01  
30.250000             5.481485E-01  
30.350000             5.472477E-01  
30.450000             5.464250E-01  
30.550000             5.455501E-01  
30.650000             5.446231E-01  
30.750000             5.437222E-01  
30.850000             5.428472E-01  
30.950000             5.419201E-01  
31.050000             5.409930E-01  
31.150000             5.400918E-01  
31.250000             5.392428E-01  
31.350000             5.383677E-01  
31.450000             5.374925E-01  
31.550000             5.366433E-01  
31.650000             5.356899E-01  
31.750000             5.348146E-01  
31.850000             5.340175E-01  
31.950000             5.332204E-01  
32.050000             5.323710E-01  
32.150000             5.315217E-01  
32.250000             5.306984E-01  
32.350000             5.298750E-01  
32.450000             5.290256E-01  
32.550000             5.282021E-01  
32.650000             5.274047E-01  
32.750000             5.266073E-01  
32.850000             5.258359E-01  
32.950000             5.250645E-01  
33.050000             5.243452E-01  
33.150000             5.235737E-01  
33.250000             5.227761E-01  
33.350000             5.219525E-01  
33.450000             5.211287E-01  
33.550000             5.203050E-01  
33.650000             5.195073E-01  
33.750000             5.186835E-01  
33.850000             5.178857E-01  
33.950000             5.170357E-01  
34.050000             5.161858E-01  
34.150000             5.153618E-01  
34.250000             5.145118E-01  
34.350000             5.136356E-01  
34.450000             5.128115E-01  
34.550000             5.120135E-01  
34.650000             5.112155E-01  
34.750000             5.103914E-01  
34.850000             5.095933E-01  
34.950000             5.087951E-01  
35.050000             5.080230E-01  
35.150000             5.072248E-01  
35.250000             5.064527E-01  
35.350000             5.056544E-01  
35.450000             5.049083E-01  
35.550000             5.041621E-01  
35.650000             5.033638E-01  
35.750000             5.025915E-01  
35.850000             5.018713E-01  
35.950000             5.011511E-01  
36.050000             5.004048E-01  
36.150000             4.996323E-01  
36.250000             4.989120E-01  
36.350000             4.981656E-01  
36.450000             4.973931E-01  
36.550000             4.966206E-01  
36.650000             4.958741E-01  
36.750000             4.951536E-01  
36.850000             4.944071E-01  
36.950000             4.936866E-01  
37.050000             4.929921E-01  
37.150000             4.922716E-01  
37.250000             4.915510E-01  
37.350000             4.908043E-01  
37.450000             4.900576E-01  
37.550000             4.892586E-01  
37.650000             4.884857E-01  
37.750000             4.877128E-01  
37.850000             4.869399E-01  
37.950000             4.861930E-01  
38.050000             4.854461E-01  
38.150000             4.847252E-01  
38.250000             4.840043E-01  
38.350000             4.832834E-01  
38.450000             4.825625E-01  
38.550000             4.818415E-01  
38.650000             4.810944E-01  
38.750000             4.803995E-01  
38.850000             4.797045E-01  
38.950000             4.790095E-01  
39.050000             4.783406E-01  
39.150000             4.777239E-01  
39.250000             4.770810E-01  
39.350000             4.764120E-01  
39.450000             4.757430E-01  
39.550000             4.751000E-01  
39.650000             4.744049E-01  
39.750000             4.737619E-01  
39.850000             4.730927E-01  
39.950000             4.724497E-01  
40.050000             4.718066E-01  
40.150000             4.711635E-01  
40.250000             4.705204E-01  
40.350000             4.697989E-01  
40.450000             4.691035E-01  
40.550000             4.684342E-01  
40.650000             4.677648E-01  
40.750000             4.670954E-01  
40.850000             4.664261E-01  
40.950000             4.657566E-01  
41.050000             4.651133E-01  
41.150000             4.644960E-01  
41.250000             4.638787E-01  
41.350000             4.632092E-01  
41.450000             4.625135E-01  
41.550000             4.618701E-01  
41.650000             4.612527E-01  
41.750000             4.606091E-01  
41.850000             4.599917E-01  
41.950000             4.593742E-01  
42.050000             4.587045E-01  
42.150000             4.580609E-01  
42.250000             4.574172E-01  
42.350000             4.568258E-01  
42.450000             4.561821E-01  
42.550000             4.555645E-01  
42.650000             4.549730E-01  
42.750000             4.543814E-01  
42.850000             4.537637E-01  
42.950000             4.531721E-01  
43.050000             4.525805E-01  
43.150000             4.520150E-01  
43.250000             4.514495E-01  
43.350000             4.508839E-01  
43.450000             4.503183E-01  
43.550000             4.497788E-01  
43.650000             4.492132E-01  
43.750000             4.486736E-01  
43.850000             4.480818E-01  
43.950000             4.474639E-01  
44.050000             4.468720E-01  
44.150000             4.462540E-01  
44.250000             4.456360E-01  
44.350000             4.450180E-01  
44.450000             4.444260E-01  
44.550000             4.438340E-01  
44.650000             4.432420E-01  
44.750000             4.426239E-01  
44.850000             4.420318E-01  
44.950000             4.413875E-01  
45.050000             4.407954E-01  
45.150000             4.401510E-01  
45.250000             4.395328E-01  
45.350000             4.389145E-01  
45.450000             4.382177E-01  
45.550000             4.375994E-01  
45.650000             4.369810E-01  
45.750000             4.363888E-01  
45.850000             4.357181E-01  
45.950000             4.350996E-01  
46.050000             4.344027E-01  
46.150000             4.337319E-01  
46.250000             4.330873E-01  
46.350000             4.324687E-01  
46.450000             4.319024E-01  
46.550000             4.312838E-01  
46.650000             4.306652E-01  
46.750000             4.299943E-01  
46.850000             4.293494E-01  
46.950000             4.286262E-01  
47.050000             4.279029E-01  
47.150000             4.272318E-01  
47.250000             4.265869E-01  
47.350000             4.259681E-01  
47.450000             4.252447E-01  
47.550000             4.244951E-01  
47.650000             4.237978E-01  
47.750000             4.231527E-01  
47.850000             4.224292E-01  
47.950000             4.217579E-01  
48.050000             4.211390E-01  
48.150000             4.204676E-01  
48.250000             4.199009E-01  
48.350000             4.192818E-01  
48.450000             4.187150E-01  
48.550000             4.181482E-01  
48.650000             4.174768E-01  
48.750000             4.168314E-01  
48.850000             4.162384E-01  
48.950000             4.156192E-01  
49.050000             4.150261E-01  
49.150000             4.144330E-01  
49.250000             4.137614E-01  
49.350000             4.131159E-01  
49.450000             4.124442E-01  
49.550000             4.117726E-01  
49.650000             4.111009E-01  
49.750000             4.104291E-01  
49.850000             4.097574E-01  
49.950000             4.090856E-01  
50.050000             4.084661E-01  
50.150000             4.077681E-01  
50.250000             4.070962E-01  
50.350000             4.064243E-01  
50.450000             4.058309E-01  
50.550000             4.052374E-01  
50.650000             4.046177E-01  
50.750000             4.039719E-01  
50.850000             4.033260E-01  
50.950000             4.026540E-01  
51.050000             4.019819E-01  
51.150000             4.013621E-01  
51.250000             4.007423E-01  
51.350000             4.001225E-01  
51.450000             3.995288E-01  
51.550000             3.989612E-01  
51.650000             3.983675E-01  
51.750000             3.977737E-01  
51.850000             3.971799E-01  
51.950000             3.965600E-01  
52.050000             3.959399E-01  
52.150000             3.953199E-01  
52.250000             3.947522E-01  
52.350000             3.941583E-01  
52.450000             3.935382E-01  
52.550000             3.929442E-01  
52.650000             3.924026E-01  
52.750000             3.917562E-01  
52.850000             3.911622E-01  
52.950000             3.905420E-01  
53.050000             3.899479E-01  
53.150000             3.893800E-01  
53.250000             3.887858E-01  
53.350000             3.882179E-01  
53.450000             3.876499E-01  
53.550000             3.870818E-01  
53.650000             3.865400E-01  
53.750000             3.859719E-01  
53.850000             3.854038E-01  
